   t         Theta F_0 0       Theta F_0 0.5       Theta F_0 1.2
  0.00   0.10471975512E+01   0.10471975512E+01   0.10471975512E+01
  0.03   0.10464181283E+01   0.10464271277E+01   0.10464397269E+01
  0.06   0.10448713249E+01   0.10449071799E+01   0.10449573768E+01
  0.09   0.10425693496E+01   0.10426586249E+01   0.10427836103E+01
  0.12   0.10395245721E+01   0.10397023875E+01   0.10399513291E+01
  0.15   0.10357495191E+01   0.10360593906E+01   0.10364932106E+01
  0.18   0.10312568717E+01   0.10317505466E+01   0.10324416918E+01
  0.21   0.10260594631E+01   0.10267967507E+01   0.10278289541E+01
  0.24   0.10201702783E+01   0.10212188740E+01   0.10226869099E+01
  0.27   0.10136024539E+01   0.10150377580E+01   0.10170471881E+01
  0.30   0.10063692788E+01   0.10082742095E+01   0.10109411221E+01
  0.33   0.99848419557E+00   0.10009489961E+01   0.10043997362E+01
  0.36   0.98996080266E+00   0.99308284205E+00   0.99745373398E+00
  0.39   0.98081285663E+00   0.98469642441E+00   0.99013348549E+00
  0.42   0.97105427490E+00   0.97581036929E+00   0.98246901554E+00
  0.45   0.96069913878E+00   0.96644524834E+00   0.97448999135E+00
  0.48   0.94976169660E+00   0.95662157526E+00   0.96622571038E+00
  0.51   0.93825636687E+00   0.94635980210E+00   0.95770508806E+00
  0.54   0.92619774144E+00   0.93568031553E+00   0.94895664535E+00
  0.57   0.91360058846E+00   0.92460343288E+00   0.94000849603E+00
  0.60   0.90047985516E+00   0.91314939789E+00   0.93088833397E+00
  0.63   0.88685067027E+00   0.90133837615E+00   0.92162341999E+00
  0.66   0.87272834605E+00   0.88919045017E+00   0.91224056869E+00
  0.69   0.85812837983E+00   0.87672561396E+00   0.90276613490E+00
  0.72   0.84306645499E+00   0.86396376730E+00   0.89322600010E+00
  0.75   0.82755844131E+00   0.85092470939E+00   0.88364555853E+00
  0.78   0.81162039454E+00   0.83762813207E+00   0.87404970327E+00
  0.81   0.79526855535E+00   0.82409361250E+00   0.86446281209E+00
  0.84   0.77851934726E+00   0.81034060532E+00   0.85490873333E+00
  0.87   0.76138937386E+00   0.79638843423E+00   0.84541077168E+00
  0.90   0.74389541500E+00   0.78225628313E+00   0.83599167401E+00
  0.93   0.72605442204E+00   0.76796318663E+00   0.82667361521E+00
  0.96   0.70788351209E+00   0.75352802014E+00   0.81747818421E+00
  0.99   0.68939996127E+00   0.73896948940E+00   0.80842637012E+00
  1.02   0.67062119685E+00   0.72430611957E+00   0.79953854857E+00
  1.05   0.65156478840E+00   0.70955624394E+00   0.79083446837E+00
  1.08   0.63224843785E+00   0.69473799208E+00   0.78233323850E+00
  1.11   0.61268996849E+00   0.67986927779E+00   0.77405331541E+00
  1.14   0.59290731299E+00   0.66496778663E+00   0.76601249085E+00
  1.17   0.57291850029E+00   0.65005096318E+00   0.75822788008E+00
  1.20   0.55274164163E+00   0.63513599803E+00   0.75071591078E+00
  1.23   0.53239491552E+00   0.62023981470E+00   0.74349231235E+00
  1.26   0.51189655190E+00   0.60537905622E+00   0.73657210598E+00
  1.29   0.49126481531E+00   0.59057007184E+00   0.72996959536E+00
  1.32   0.47051798743E+00   0.57582890357E+00   0.72369835812E+00
  1.35   0.44967434872E+00   0.56117127273E+00   0.71777123795E+00
  1.38   0.42875215953E+00   0.54661256670E+00   0.71220033764E+00
  1.41   0.40776964058E+00   0.53216782568E+00   0.70699701282E+00
  1.44   0.38674495286E+00   0.51785172967E+00   0.70217186664E+00
  1.47   0.36569617726E+00   0.50367858571E+00   0.69773474523E+00
  1.50   0.34464129372E+00   0.48966231535E+00   0.69369473419E+00
  1.53   0.32359816025E+00   0.47581644254E+00   0.69006015583E+00
  1.56   0.30258449177E+00   0.46215408180E+00   0.68683856749E+00
  1.59   0.28161783887E+00   0.44868792692E+00   0.68403676071E+00
  1.62   0.26071556665E+00   0.43543024004E+00   0.68166076138E+00
  1.65   0.23989483372E+00   0.42239284130E+00   0.67971583081E+00
  1.68   0.21917257135E+00   0.40958709899E+00   0.67820646785E+00
  1.71   0.19856546306E+00   0.39702392034E+00   0.67713641184E+00
  1.74   0.17808992453E+00   0.38471374284E+00   0.67650864661E+00
  1.77   0.15776208405E+00   0.37266652627E+00   0.67632540537E+00
  1.80   0.13759776354E+00   0.36089174534E+00   0.67658817660E+00
  1.83   0.11761246027E+00   0.34939838303E+00   0.67729771077E+00
  1.86   0.97821329186E-01   0.33819492462E+00   0.67845402810E+00
  1.89   0.78239166218E-01   0.32728935240E+00   0.68005642709E+00
  1.92   0.58880392262E-01   0.31668914120E+00   0.68210349401E+00
  1.95   0.39759038177E-01   0.30640125450E+00   0.68459311325E+00
  1.98   0.20888730696E-01   0.29643214138E+00   0.68752247843E+00
  2.01   0.22826793367E-02   0.28678773415E+00   0.69088810443E+00
  2.04   0.62671389715E+01   0.27747344674E+00   0.69468584012E+00
  2.07   0.62490993328E+01   0.26849417378E+00   0.69891088189E+00
  2.10   0.62313609602E+01   0.25985429042E+00   0.70355778786E+00
  2.13   0.62139352841E+01   0.25155765284E+00   0.70862049287E+00
  2.16   0.61968332684E+01   0.24360759948E+00   0.71409232404E+00
  2.19   0.61800654033E+01   0.23600695295E+00   0.71996601698E+00
  2.22   0.61636416996E+01   0.22875802256E+00   0.72623373263E+00
  2.25   0.61475716846E+01   0.22186260760E+00   0.73288707458E+00
  2.28   0.61318643984E+01   0.21532200117E+00   0.73991710696E+00
  2.31   0.61165283912E+01   0.20913699465E+00   0.74731437272E+00
  2.34   0.61015717219E+01   0.20330788281E+00   0.75506891242E+00
  2.37   0.60870019578E+01   0.19783446942E+00   0.76317028331E+00
  2.40   0.60728261748E+01   0.19271607350E+00   0.77160757880E+00
  2.43   0.60590509585E+01   0.18795153606E+00   0.78036944820E+00
  2.46   0.60456824067E+01   0.18353922733E+00   0.78944411663E+00
  2.49   0.60327261319E+01   0.17947705459E+00   0.79881940522E+00
  2.52   0.60201872651E+01   0.17576247034E+00   0.80848275139E+00
  2.55   0.60080704604E+01   0.17239248099E+00   0.81842122918E+00
  2.58   0.59963798995E+01   0.16936365601E+00   0.82862156969E+00
  2.61   0.59851192975E+01   0.16667213741E+00   0.83907018144E+00
  2.64   0.59742919095E+01   0.16431364965E+00   0.84975317072E+00
  2.67   0.59639005364E+01   0.16228350994E+00   0.86065636176E+00
  2.70   0.59539475327E+01   0.16057663884E+00   0.87176531681E+00
  2.73   0.59444348137E+01   0.15918757121E+00   0.88306535593E+00
  2.76   0.59353638635E+01   0.15811046745E+00   0.89454157658E+00
  2.79   0.59267357430E+01   0.15733912505E+00   0.90617887289E+00
  2.82   0.59185510985E+01   0.15686699040E+00   0.91796195454E+00
  2.85   0.59108101706E+01   0.15668717081E+00   0.92987536531E+00
  2.88   0.59035128025E+01   0.15679244683E+00   0.94190350115E+00
  2.91   0.58966584496E+01   0.15717528474E+00   0.95403062779E+00
  2.94   0.58902461884E+01   0.15782784923E+00   0.96624089788E+00
  2.97   0.58842747258E+01   0.15874201624E+00   0.97851836753E+00
  3.00   0.58787424083E+01   0.15990938604E+00   0.99084701232E+00
  3.03   0.58736472316E+01   0.16132129636E+00   0.10032107427E+01
  3.06   0.58689868497E+01   0.16296883568E+00   0.10155934188E+01
  3.09   0.58647585841E+01   0.16484285664E+00   0.10279788645E+01
  3.12   0.58609594336E+01   0.16693398954E+00   0.10403508811E+01
  3.15   0.58575860830E+01   0.16923265589E+00   0.10526932600E+01
  3.18   0.58546349126E+01   0.17172908204E+00   0.10649897948E+01
  3.21   0.58521020073E+01   0.17441331287E+00   0.10772242928E+01
  3.24   0.58499831652E+01   0.17727522546E+00   0.10893805859E+01
  3.27   0.58482739072E+01   0.18030454278E+00   0.11014425407E+01
  3.30   0.58469694850E+01   0.18349084746E+00   0.11133940676E+01
  3.33   0.58460648906E+01   0.18682359540E+00   0.11252191298E+01
  3.36   0.58455548643E+01   0.19029212946E+00   0.11369017515E+01
  3.39   0.58454339034E+01   0.19388569301E+00   0.11484260248E+01
  3.42   0.58456962704E+01   0.19759344353E+00   0.11597761174E+01
  3.45   0.58463360016E+01   0.20140446598E+00   0.11709362780E+01
  3.48   0.58473469149E+01   0.20530778620E+00   0.11818908421E+01
  3.51   0.58487226181E+01   0.20929238413E+00   0.11926242376E+01
  3.54   0.58504565164E+01   0.21334720694E+00   0.12031209888E+01
  3.57   0.58525418210E+01   0.21746118199E+00   0.12133657208E+01
  3.60   0.58549715560E+01   0.22162322968E+00   0.12233431630E+01
  3.63   0.58577385669E+01   0.22582227609E+00   0.12330381527E+01
  3.66   0.58608355275E+01   0.23004726551E+00   0.12424356374E+01
  3.69   0.58642549482E+01   0.23428717268E+00   0.12515206778E+01
  3.72   0.58679891827E+01   0.23853101494E+00   0.12602784501E+01
  3.75   0.58720304362E+01   0.24276786408E+00   0.12686942479E+01
  3.78   0.58763707722E+01   0.24698685806E+00   0.12767534839E+01
  3.81   0.58810021205E+01   0.25117721241E+00   0.12844416921E+01
  3.84   0.58859162840E+01   0.25532823142E+00   0.12917445291E+01
  3.87   0.58911049464E+01   0.25942931914E+00   0.12986477760E+01
  3.90   0.58965596794E+01   0.26346999006E+00   0.13051373396E+01
  3.93   0.59022719502E+01   0.26743987952E+00   0.13111992546E+01
  3.96   0.59082331286E+01   0.27132875395E+00   0.13168196851E+01
  3.99   0.59144344945E+01   0.27512652069E+00   0.13219849270E+01
  4.02   0.59208672454E+01   0.27882323769E+00   0.13266814096E+01
  4.05   0.59275225035E+01   0.28240912281E+00   0.13308956987E+01
  4.08   0.59343913233E+01   0.28587456290E+00   0.13346144994E+01
  4.11   0.59414646990E+01   0.28921012258E+00   0.13378246590E+01
  4.14   0.59487335719E+01   0.29240655271E+00   0.13405131711E+01
  4.17   0.59561888379E+01   0.29545479863E+00   0.13426671793E+01
  4.20   0.59638213550E+01   0.29834600805E+00   0.13442739825E+01
  4.23   0.59716219509E+01   0.30107153870E+00   0.13453210399E+01
  4.26   0.59795814301E+01   0.30362296565E+00   0.13457959769E+01
  4.29   0.59876905823E+01   0.30599208840E+00   0.13456865920E+01
  4.32   0.59959401891E+01   0.30817093762E+00   0.13449808641E+01
  4.35   0.60043210319E+01   0.31015178167E+00   0.13436669608E+01
  4.38   0.60128238996E+01   0.31192713282E+00   0.13417332471E+01
  4.41   0.60214395961E+01   0.31348975320E+00   0.13391682960E+01
  4.44   0.60301589476E+01   0.31483266042E+00   0.13359608985E+01
  4.47   0.60389728104E+01   0.31594913306E+00   0.13321000762E+01
  4.50   0.60478720783E+01   0.31683271572E+00   0.13275750934E+01
  4.53   0.60568476901E+01   0.31747722396E+00   0.13223754716E+01
  4.56   0.60658906367E+01   0.31787674891E+00   0.13164910039E+01
  4.59   0.60749919689E+01   0.31802566160E+00   0.13099117710E+01
  4.62   0.60841428045E+01   0.31791861712E+00   0.13026281586E+01
  4.65   0.60933343353E+01   0.31755055846E+00   0.12946308754E+01
  4.68   0.61025578345E+01   0.31691672015E+00   0.12859109725E+01
  4.71   0.61118046633E+01   0.31601263163E+00   0.12764598637E+01
  4.74   0.61210662784E+01   0.31483412040E+00   0.12662693474E+01
  4.77   0.61303342380E+01   0.31337731490E+00   0.12553316290E+01
  4.80   0.61396002092E+01   0.31163864722E+00   0.12436393453E+01
  4.83   0.61488559738E+01   0.30961485550E+00   0.12311855889E+01
  4.86   0.61580934351E+01   0.30730298614E+00   0.12179639343E+01
  4.89   0.61673046238E+01   0.30470039578E+00   0.12039684653E+01
  4.92   0.61764817040E+01   0.30180475298E+00   0.11891938024E+01
  4.95   0.61856169791E+01   0.29861403978E+00   0.11736351320E+01
  4.98   0.61947028973E+01   0.29512655290E+00   0.11572882357E+01
  5.01   0.62037320570E+01   0.29134090482E+00   0.11401495209E+01
  5.04   0.62126972121E+01   0.28725602447E+00   0.11222160514E+01
  5.07   0.62215912766E+01   0.28287115785E+00   0.11034855789E+01
  5.10   0.62304073297E+01   0.27818586828E+00   0.10839565743E+01
  5.13   0.62391386201E+01   0.27320003641E+00   0.10636282600E+01
  5.16   0.62477785704E+01   0.26791386002E+00   0.10425006411E+01
  5.19   0.62563207809E+01   0.26232785355E+00   0.10205745371E+01
  5.22   0.62647590333E+01   0.25644284732E+00   0.99785161300E+00
  5.25   0.62730872947E+01   0.25025998653E+00   0.97433440939E+00
  5.28   0.62812997202E+01   0.24378072995E+00   0.95002637223E+00
  5.31   0.62053492050E-02   0.23700684835E+00   0.92493188087E+00
  5.34   0.14169336540E-01   0.22994042262E+00   0.89905627493E+00
  5.37   0.22001112089E-01   0.22258384163E+00   0.87240587933E+00
  5.40   0.29695611601E-01   0.21493979975E+00   0.84498802731E+00
  5.43   0.37247971498E-01   0.20701129408E+00   0.81681108102E+00
  5.46   0.44653530574E-01   0.19880162140E+00   0.78788444960E+00
  5.49   0.51907831439E-01   0.19031437476E+00   0.75821860408E+00
  5.52   0.59006621720E-01   0.18155343979E+00   0.72782508918E+00
  5.55   0.65945854999E-01   0.17252299066E+00   0.69671653133E+00
  5.58   0.72721691519E-01   0.16322748570E+00   0.66490664293E+00
  5.61   0.79330498640E-01   0.15367166277E+00   0.63241022228E+00
  5.64   0.85768851071E-01   0.14386053420E+00   0.59924314918E+00
  5.67   0.92033530855E-01   0.13379938147E+00   0.56542237568E+00
  5.70   0.98121527146E-01   0.12349374950E+00   0.53096591201E+00
  5.73   0.10403003576E+00   0.11294944071E+00   0.49589280732E+00
  5.76   0.10975645849E+00   0.10217250863E+00   0.46022312516E+00
  5.79   0.11529840227E+00   0.91169251263E-01   0.42397791362E+00
  5.82   0.12065367810E+00   0.79946204134E-01   0.38717916998E+00
  5.85   0.12582029974E+00   0.68510132977E-01   0.34984979994E+00
  5.88   0.13079648233E+00   0.56868026161E-01   0.31201357142E+00
  5.91   0.13558064071E+00   0.45027086799E-01   0.27369506306E+00
  5.94   0.14017138762E+00   0.32994724579E-01   0.23491960758E+00
  5.97   0.14456753180E+00   0.20778547316E-01   0.19571323014E+00
  6.00   0.14876807577E+00   0.83863522415E-02   0.15610258209E+00
  6.03   0.15277221364E+00   0.62790114242E+01   0.11611487033E+00
  6.06   0.15657932868E+00   0.62662912979E+01   0.75777782760E-01
  6.09   0.16018899071E+00   0.62534195913E+01   0.35119410141E-01
  6.12   0.16360095352E+00   0.62404047674E+01   0.62773534721E+01
  6.15   0.16681515197E+00   0.62272554320E+01   0.62361380050E+01
  6.18   0.16983169913E+00   0.62139803231E+01   0.61946871189E+01
  6.21   0.17265088327E+00   0.62005883014E+01   0.61530296824E+01
  6.24   0.17527316467E+00   0.61870883398E+01   0.61111945417E+01
  6.27   0.17769917243E+00   0.61734895132E+01   0.60692104332E+01
  6.30   0.17992970117E+00   0.61598009883E+01   0.60271058957E+01
  6.33   0.18196570762E+00   0.61460320128E+01   0.59849091846E+01
  6.36   0.18380830711E+00   0.61321919057E+01   0.59426481872E+01
  6.39   0.18545877006E+00   0.61182900460E+01   0.59003503410E+01
  6.42   0.18691851837E+00   0.61043358630E+01   0.58580425543E+01
  6.45   0.18818912167E+00   0.60903388258E+01   0.58157511311E+01
  6.48   0.18927229365E+00   0.60763084331E+01   0.57735016986E+01
  6.51   0.19016988824E+00   0.60622542028E+01   0.57313191409E+01
  6.54   0.19088389577E+00   0.60481856625E+01   0.56892275362E+01
  6.57   0.19141643905E+00   0.60341123391E+01   0.56472500997E+01
  6.60   0.19176976949E+00   0.60200437498E+01   0.56054091316E+01
  6.63   0.19194626311E+00   0.60059893919E+01   0.55637259714E+01
  6.66   0.19194841653E+00   0.59919587342E+01   0.55222209575E+01
  6.69   0.19177884294E+00   0.59779612076E+01   0.54809133928E+01
  6.72   0.19144026808E+00   0.59640061966E+01   0.54398215165E+01
  6.75   0.19093552610E+00   0.59501030307E+01   0.53989624815E+01
  6.78   0.19026755549E+00   0.59362609764E+01   0.53583523380E+01
  6.81   0.18943939498E+00   0.59224892292E+01   0.53180060230E+01
  6.84   0.18845417936E+00   0.59087969062E+01   0.52779373543E+01
  6.87   0.18731513537E+00   0.58951930389E+01   0.52381590318E+01
  6.90   0.18602557754E+00   0.58816865662E+01   0.51986826418E+01
  6.93   0.18458890402E+00   0.58682863283E+01   0.51595186676E+01
  6.96   0.18300859241E+00   0.58550010602E+01   0.51206765042E+01
  6.99   0.18128819560E+00   0.58418393862E+01   0.50821644768E+01
  7.02   0.17943133761E+00   0.58288098145E+01   0.50439898640E+01
  7.05   0.17744170944E+00   0.58159207320E+01   0.50061589234E+01
  7.08   0.17532306486E+00   0.58031804000E+01   0.49686769213E+01
  7.11   0.17307921631E+00   0.57905969496E+01   0.49315481647E+01
  7.14   0.17071403076E+00   0.57781783782E+01   0.48947760359E+01
  7.17   0.16823142555E+00   0.57659325457E+01   0.48583630287E+01
  7.20   0.16563536431E+00   0.57538671714E+01   0.48223107871E+01
  7.23   0.16292985287E+00   0.57419898311E+01   0.47866201445E+01
  7.26   0.16011893514E+00   0.57303079549E+01   0.47512911649E+01
  7.29   0.15720668911E+00   0.57188288247E+01   0.47163231837E+01
  7.32   0.15419722282E+00   0.57075595727E+01   0.46817148503E+01
  7.35   0.15109467032E+00   0.56965071796E+01   0.46474641696E+01
  7.38   0.14790318772E+00   0.56856784735E+01   0.46135685448E+01
  7.41   0.14462694928E+00   0.56750801291E+01   0.45800248185E+01
  7.44   0.14127014346E+00   0.56647186665E+01   0.45468293148E+01
  7.47   0.13783696908E+00   0.56546004513E+01   0.45139778795E+01
  7.50   0.13433163148E+00   0.56447316940E+01   0.44814659204E+01
  7.53   0.13075833876E+00   0.56351184502E+01   0.44492884462E+01
  7.56   0.12712129799E+00   0.56257666205E+01   0.44174401048E+01
  7.59   0.12342471155E+00   0.56166819512E+01   0.43859152194E+01
  7.62   0.11967277348E+00   0.56078700344E+01   0.43547078248E+01
  7.65   0.11586966589E+00   0.55993363088E+01   0.43238117013E+01
  7.68   0.11201955540E+00   0.55910860605E+01   0.42932204077E+01
  7.71   0.10812658969E+00   0.55831244236E+01   0.42629273127E+01
  7.74   0.10419489404E+00   0.55754563815E+01   0.42329256247E+01
  7.77   0.10022856801E+00   0.55680867674E+01   0.42032084209E+01
  7.80   0.96231682117E-01   0.55610202656E+01   0.41737686739E+01
  7.83   0.92208274609E-01   0.55542614122E+01   0.41445992777E+01
  7.86   0.88162348315E-01   0.55478145968E+01   0.41156930717E+01
  7.89   0.84097867549E-01   0.55416840627E+01   0.40870428633E+01
  7.92   0.80018755099E-01   0.55358739082E+01   0.40586414499E+01
  7.95   0.75928889286E-01   0.55303880880E+01   0.40304816380E+01
  7.98   0.71832101102E-01   0.55252304131E+01   0.40025562627E+01
  8.01   0.67732171433E-01   0.55204045525E+01   0.39748582046E+01
  8.04   0.63632828353E-01   0.55159140335E+01   0.39473804060E+01
  8.07   0.59537744514E-01   0.55117622422E+01   0.39201158860E+01
  8.10   0.55450534615E-01   0.55079524243E+01   0.38930577540E+01
  8.13   0.51374752953E-01   0.55044876853E+01   0.38661992228E+01
  8.16   0.47313891076E-01   0.55013709906E+01   0.38395336197E+01
  8.19   0.43271375510E-01   0.54986051657E+01   0.38130543976E+01
  8.22   0.39250565592E-01   0.54961928963E+01   0.37867551443E+01
  8.25   0.35254751384E-01   0.54941367276E+01   0.37606295918E+01
  8.28   0.31287151685E-01   0.54924390644E+01   0.37346716236E+01
  8.31   0.27350912138E-01   0.54911021700E+01   0.37088752824E+01
  8.34   0.23449103433E-01   0.54901281660E+01   0.36832347763E+01
  8.37   0.19584719599E-01   0.54895190308E+01   0.36577444843E+01
  8.40   0.15760676402E-01   0.54892765987E+01   0.36323989621E+01
  8.43   0.11979809831E-01   0.54894025586E+01   0.36071929456E+01
  8.46   0.82448746882E-02   0.54898984525E+01   0.35821213557E+01
  8.49   0.45585432691E-02   0.54907656733E+01   0.35571793009E+01
  8.52   0.92340414655E-03   0.54920054639E+01   0.35323620809E+01
  8.55   0.62805272682E+01   0.54936189140E+01   0.35076651888E+01
  8.58   0.62770019390E+01   0.54956069585E+01   0.34830843131E+01
  8.61   0.62735350547E+01   0.54979703749E+01   0.34586153395E+01
  8.64   0.62701288588E+01   0.55007097808E+01   0.34342543525E+01
  8.67   0.62667855063E+01   0.55038256306E+01   0.34099976358E+01
  8.70   0.62635070632E+01   0.55073182134E+01   0.33858416741E+01
  8.73   0.62602955060E+01   0.55111876492E+01   0.33617831526E+01
  8.76   0.62571527213E+01   0.55154338860E+01   0.33378189582E+01
  8.79   0.62540805050E+01   0.55200566964E+01   0.33139461790E+01
  8.82   0.62510805625E+01   0.55250556744E+01   0.32901621046E+01
  8.85   0.62481545085E+01   0.55304302312E+01   0.32664642257E+01
  8.88   0.62453038666E+01   0.55361795924E+01   0.32428502336E+01
